Frequency [Hz], |S00| [-], |S10| [-], |S20| [-], |S30| [-], Arg(S00) [-], Arg(S10) [-], Arg(S20) [-], Arg(S30) [-], Delay 0>0 [s], Delay 0>1 [s], Delay 0>2 [s], Delay 0>3 [s], |Z0| [Ohm] , Arg(Z0) [-]
2.000000e+08, 7.433498e-02, 9.943189e-01, 2.472666e-02, 5.513469e-03, 2.983578e+00, -2.205802e-01, 1.424906e+00, -9.970922e-01, 1.114883e-10, 1.768168e-10, 1.468847e-10, 3.966393e-10, 4.316202e+01, 2.352002e-02
2.038000e+08, 7.419665e-02, 9.943274e-01, 2.519190e-02, 5.642605e-03, 2.980916e+00, -2.248019e-01, 1.421399e+00, -1.006562e+00, 1.111428e-10, 1.767955e-10, 1.458994e-10, 3.935223e-10, 4.317662e+01, 2.386773e-02
2.076000e+08, 7.405595e-02, 9.943359e-01, 2.565656e-02, 5.772055e-03, 2.978263e+00, -2.290231e-01, 1.417916e+00, -1.015958e+00, 1.107829e-10, 1.767755e-10, 1.449483e-10, 3.905214e-10, 4.319146e+01, 2.421179e-02
2.114000e+08, 7.391288e-02, 9.943446e-01, 2.612060e-02, 5.901808e-03, 2.975618e+00, -2.332438e-01, 1.414455e+00, -1.025282e+00, 1.104088e-10, 1.767567e-10, 1.440296e-10, 3.876304e-10, 4.320653e+01, 2.455213e-02
2.152000e+08, 7.376747e-02, 9.943534e-01, 2.658401e-02, 6.031855e-03, 2.972981e+00, -2.374640e-01, 1.411016e+00, -1.034537e+00, 1.100211e-10, 1.767391e-10, 1.431415e-10, 3.848432e-10, 4.322183e+01, 2.488867e-02
2.190000e+08, 7.361972e-02, 9.943623e-01, 2.704677e-02, 6.162187e-03, 2.970355e+00, -2.416839e-01, 1.407598e+00, -1.043726e+00, 1.096200e-10, 1.767226e-10, 1.422825e-10, 3.821542e-10, 4.323735e+01, 2.522134e-02
2.228000e+08, 7.346964e-02, 9.943714e-01, 2.750885e-02, 6.292794e-03, 2.967737e+00, -2.459033e-01, 1.404201e+00, -1.052850e+00, 1.092057e-10, 1.767072e-10, 1.414511e-10, 3.795581e-10, 4.325311e+01, 2.555007e-02
2.266000e+08, 7.331724e-02, 9.943805e-01, 2.797023e-02, 6.423666e-03, 2.965130e+00, -2.501224e-01, 1.400824e+00, -1.061913e+00, 1.087785e-10, 1.766927e-10, 1.406462e-10, 3.770499e-10, 4.326908e+01, 2.587480e-02
2.304000e+08, 7.316253e-02, 9.943897e-01, 2.843089e-02, 6.554795e-03, 2.962533e+00, -2.543411e-01, 1.397466e+00, -1.070915e+00, 1.083387e-10, 1.766791e-10, 1.398666e-10, 3.746251e-10, 4.328528e+01, 2.619544e-02
2.342000e+08, 7.300553e-02, 9.943991e-01, 2.889080e-02, 6.686170e-03, 2.959946e+00, -2.585596e-01, 1.394126e+00, -1.079860e+00, 1.078864e-10, 1.766664e-10, 1.391112e-10, 3.722790e-10, 4.330170e+01, 2.651194e-02
2.380000e+08, 7.284625e-02, 9.944085e-01, 2.934994e-02, 6.817782e-03, 2.957370e+00, -2.627777e-01, 1.390805e+00, -1.088748e+00, 1.074217e-10, 1.766545e-10, 1.383792e-10, 3.700077e-10, 4.331833e+01, 2.682424e-02
2.418000e+08, 7.268469e-02, 9.944181e-01, 2.980828e-02, 6.949622e-03, 2.954805e+00, -2.669955e-01, 1.387501e+00, -1.097583e+00, 1.069449e-10, 1.766434e-10, 1.376696e-10, 3.678071e-10, 4.333518e+01, 2.713228e-02
2.456000e+08, 7.252087e-02, 9.944277e-01, 3.026580e-02, 7.081678e-03, 2.952252e+00, -2.712130e-01, 1.384214e+00, -1.106364e+00, 1.064560e-10, 1.766330e-10, 1.369818e-10, 3.656737e-10, 4.335225e+01, 2.743598e-02
2.494000e+08, 7.235481e-02, 9.944375e-01, 3.072247e-02, 7.213942e-03, 2.949710e+00, -2.754303e-01, 1.380943e+00, -1.115095e+00, 1.059551e-10, 1.766233e-10, 1.363150e-10, 3.636040e-10, 4.336952e+01, 2.773531e-02
2.532000e+08, 7.218650e-02, 9.944473e-01, 3.117826e-02, 7.346404e-03, 2.947180e+00, -2.796474e-01, 1.377689e+00, -1.123777e+00, 1.054423e-10, 1.766142e-10, 1.356687e-10, 3.615947e-10, 4.338701e+01, 2.803019e-02
2.570000e+08, 7.201596e-02, 9.944572e-01, 3.163315e-02, 7.479054e-03, 2.944663e+00, -2.838643e-01, 1.374449e+00, -1.132410e+00, 1.049178e-10, 1.766058e-10, 1.350423e-10, 3.596427e-10, 4.340470e+01, 2.832057e-02
2.608000e+08, 7.184321e-02, 9.944673e-01, 3.208711e-02, 7.611882e-03, 2.942158e+00, -2.880809e-01, 1.371225e+00, -1.140997e+00, 1.043814e-10, 1.765980e-10, 1.344353e-10, 3.577451e-10, 4.342260e+01, 2.860640e-02
2.646000e+08, 7.166826e-02, 9.944774e-01, 3.254010e-02, 7.744878e-03, 2.939665e+00, -2.922974e-01, 1.368015e+00, -1.149539e+00, 1.038333e-10, 1.765908e-10, 1.338473e-10, 3.558992e-10, 4.344069e+01, 2.888763e-02
2.684000e+08, 7.149111e-02, 9.944875e-01, 3.299211e-02, 7.878033e-03, 2.937186e+00, -2.965137e-01, 1.364820e+00, -1.158036e+00, 1.032735e-10, 1.765841e-10, 1.332778e-10, 3.541025e-10, 4.345899e+01, 2.916421e-02
2.722000e+08, 7.131179e-02, 9.944978e-01, 3.344310e-02, 8.011335e-03, 2.934721e+00, -3.007298e-01, 1.361637e+00, -1.166491e+00, 1.027020e-10, 1.765779e-10, 1.327267e-10, 3.523524e-10, 4.347749e+01, 2.943608e-02
2.760000e+08, 7.113029e-02, 9.945081e-01, 3.389305e-02, 8.144777e-03, 2.932268e+00, -3.049458e-01, 1.358468e+00, -1.174904e+00, 1.021187e-10, 1.765722e-10, 1.321934e-10, 3.506468e-10, 4.349619e+01, 2.970319e-02
2.798000e+08, 7.094664e-02, 9.945186e-01, 3.434192e-02, 8.278346e-03, 2.929830e+00, -3.091617e-01, 1.355312e+00, -1.183276e+00, 1.015237e-10, 1.765670e-10, 1.316779e-10, 3.489833e-10, 4.351507e+01, 2.996550e-02
2.836000e+08, 7.076084e-02, 9.945290e-01, 3.478969e-02, 8.412035e-03, 2.927406e+00, -3.133774e-01, 1.352168e+00, -1.191608e+00, 1.009169e-10, 1.765623e-10, 1.311798e-10, 3.473600e-10, 4.353415e+01, 3.022296e-02
2.874000e+08, 7.057290e-02, 9.945396e-01, 3.523633e-02, 8.545832e-03, 2.924997e+00, -3.175930e-01, 1.349036e+00, -1.199902e+00, 1.002982e-10, 1.765580e-10, 1.306989e-10, 3.457748e-10, 4.355342e+01, 3.047552e-02
2.912000e+08, 7.038284e-02, 9.945502e-01, 3.568180e-02, 8.679728e-03, 2.922602e+00, -3.218086e-01, 1.345916e+00, -1.208157e+00, 9.966767e-11, 1.765541e-10, 1.302350e-10, 3.442261e-10, 4.357287e+01, 3.072315e-02
2.950000e+08, 7.019068e-02, 9.945609e-01, 3.612607e-02, 8.813713e-03, 2.920222e+00, -3.260240e-01, 1.342806e+00, -1.216376e+00, 9.902515e-11, 1.765507e-10, 1.297880e-10, 3.427120e-10, 4.359252e+01, 3.096578e-02
2.988000e+08, 6.999641e-02, 9.945716e-01, 3.656913e-02, 8.947777e-03, 2.917858e+00, -3.302393e-01, 1.339707e+00, -1.224559e+00, 9.837056e-11, 1.765476e-10, 1.293577e-10, 3.412309e-10, 4.361234e+01, 3.120339e-02
3.026000e+08, 6.980005e-02, 9.945824e-01, 3.701093e-02, 9.081911e-03, 2.915509e+00, -3.344546e-01, 1.336619e+00, -1.232706e+00, 9.770382e-11, 1.765449e-10, 1.289440e-10, 3.397812e-10, 4.363234e+01, 3.143593e-02
3.064000e+08, 6.960162e-02, 9.945933e-01, 3.745144e-02, 9.216105e-03, 2.913176e+00, -3.386698e-01, 1.333540e+00, -1.240819e+00, 9.702483e-11, 1.765426e-10, 1.285468e-10, 3.383615e-10, 4.365252e+01, 3.166336e-02
3.102000e+08, 6.940113e-02, 9.946041e-01, 3.789064e-02, 9.350349e-03, 2.910860e+00, -3.428850e-01, 1.330471e+00, -1.248897e+00, 9.633346e-11, 1.765406e-10, 1.281659e-10, 3.369704e-10, 4.367288e+01, 3.188564e-02
3.140000e+08, 6.919859e-02, 9.946151e-01, 3.832849e-02, 9.484634e-03, 2.908560e+00, -3.471001e-01, 1.327411e+00, -1.256943e+00, 9.562959e-11, 1.765389e-10, 1.278013e-10, 3.356065e-10, 4.369341e+01, 3.210272e-02
3.178000e+08, 6.899400e-02, 9.946261e-01, 3.876497e-02, 9.618950e-03, 2.906277e+00, -3.513151e-01, 1.324359e+00, -1.264956e+00, 9.491308e-11, 1.765376e-10, 1.274530e-10, 3.342687e-10, 4.371411e+01, 3.231458e-02
3.216000e+08, 6.878739e-02, 9.946371e-01, 3.920004e-02, 9.753288e-03, 2.904010e+00, -3.555301e-01, 1.321316e+00, -1.272937e+00, 9.418378e-11, 1.765366e-10, 1.271207e-10, 3.329556e-10, 4.373498e+01, 3.252117e-02
3.254000e+08, 6.857876e-02, 9.946482e-01, 3.963367e-02, 9.887638e-03, 2.901762e+00, -3.597452e-01, 1.318281e+00, -1.280887e+00, 9.344153e-11, 1.765359e-10, 1.268046e-10, 3.316663e-10, 4.375602e+01, 3.272245e-02
3.292000e+08, 6.836813e-02, 9.946592e-01, 4.006583e-02, 1.002199e-02, 2.899531e+00, -3.639601e-01, 1.315253e+00, -1.288806e+00, 9.268617e-11, 1.765355e-10, 1.265044e-10, 3.303997e-10, 4.377722e+01, 3.291840e-02
3.330000e+08, 6.815550e-02, 9.946704e-01, 4.049650e-02, 1.015634e-02, 2.897318e+00, -3.681751e-01, 1.312233e+00, -1.296694e+00, 9.191751e-11, 1.765354e-10, 1.262202e-10, 3.291546e-10, 4.379859e+01, 3.310896e-02
3.368000e+08, 6.794090e-02, 9.946815e-01, 4.092564e-02, 1.029067e-02, 2.895123e+00, -3.723901e-01, 1.309219e+00, -1.304553e+00, 9.113537e-11, 1.765355e-10, 1.259519e-10, 3.279303e-10, 4.382011e+01, 3.329412e-02
3.406000e+08, 6.772433e-02, 9.946927e-01, 4.135322e-02, 1.042498e-02, 2.892947e+00, -3.766051e-01, 1.306212e+00, -1.312383e+00, 9.033954e-11, 1.765359e-10, 1.256994e-10, 3.267257e-10, 4.384179e+01, 3.347383e-02
3.444000e+08, 6.750580e-02, 9.947039e-01, 4.177922e-02, 1.055925e-02, 2.890790e+00, -3.808201e-01, 1.303211e+00, -1.320184e+00, 8.952982e-11, 1.765366e-10, 1.254627e-10, 3.255401e-10, 4.386363e+01, 3.364807e-02
3.482000e+08, 6.728533e-02, 9.947151e-01, 4.220360e-02, 1.069348e-02, 2.888652e+00, -3.850351e-01, 1.300215e+00, -1.327956e+00, 8.870599e-11, 1.765375e-10, 1.252417e-10, 3.243725e-10, 4.388562e+01, 3.381679e-02
3.520000e+08, 6.706293e-02, 9.947263e-01, 4.262633e-02, 1.082766e-02, 2.886535e+00, -3.892501e-01, 1.297225e+00, -1.335701e+00, 8.786780e-11, 1.765386e-10, 1.250364e-10, 3.232224e-10, 4.390776e+01, 3.397997e-02
3.558000e+08, 6.683861e-02, 9.947375e-01, 4.304739e-02, 1.096178e-02, 2.884437e+00, -3.934652e-01, 1.294240e+00, -1.343418e+00, 8.701503e-11, 1.765400e-10, 1.248467e-10, 3.220888e-10, 4.393005e+01, 3.413758e-02
3.596000e+08, 6.661238e-02, 9.947488e-01, 4.346674e-02, 1.109584e-02, 2.882359e+00, -3.976802e-01, 1.291259e+00, -1.351109e+00, 8.614741e-11, 1.765416e-10, 1.246725e-10, 3.209712e-10, 4.395249e+01, 3.428958e-02
3.634000e+08, 6.638426e-02, 9.947600e-01, 4.388436e-02, 1.122982e-02, 2.880302e+00, -4.018954e-01, 1.288282e+00, -1.358772e+00, 8.526470e-11, 1.765434e-10, 1.245138e-10, 3.198688e-10, 4.397506e+01, 3.443595e-02
3.672000e+08, 6.615426e-02, 9.947712e-01, 4.430022e-02, 1.136371e-02, 2.878266e+00, -4.061105e-01, 1.285309e+00, -1.366409e+00, 8.436660e-11, 1.765455e-10, 1.243705e-10, 3.187811e-10, 4.399778e+01, 3.457666e-02
3.710000e+08, 6.592239e-02, 9.947824e-01, 4.471430e-02, 1.149751e-02, 2.876252e+00, -4.103258e-01, 1.282340e+00, -1.374021e+00, 8.345284e-11, 1.765477e-10, 1.242426e-10, 3.177075e-10, 4.402064e+01, 3.471167e-02
3.748000e+08, 6.568866e-02, 9.947937e-01, 4.512656e-02, 1.163121e-02, 2.874259e+00, -4.145410e-01, 1.279373e+00, -1.381606e+00, 8.252312e-11, 1.765501e-10, 1.241299e-10, 3.166474e-10, 4.404364e+01, 3.484096e-02
3.786000e+08, 6.545308e-02, 9.948049e-01, 4.553698e-02, 1.176480e-02, 2.872289e+00, -4.187564e-01, 1.276410e+00, -1.389167e+00, 8.157713e-11, 1.765527e-10, 1.240323e-10, 3.156002e-10, 4.406677e+01, 3.496451e-02
3.824000e+08, 6.521568e-02, 9.948160e-01, 4.594553e-02, 1.189827e-02, 2.870341e+00, -4.229718e-01, 1.273448e+00, -1.396702e+00, 8.061455e-11, 1.765555e-10, 1.239499e-10, 3.145655e-10, 4.409003e+01, 3.508227e-02
3.862000e+08, 6.497646e-02, 9.948272e-01, 4.635219e-02, 1.203162e-02, 2.868417e+00, -4.271872e-01, 1.270489e+00, -1.404213e+00, 7.963506e-11, 1.765585e-10, 1.238823e-10, 3.135429e-10, 4.411342e+01, 3.519424e-02
3.900000e+08, 6.473543e-02, 9.948384e-01, 4.675693e-02, 1.216484e-02, 2.866515e+00, -4.314027e-01, 1.267531e+00, -1.411699e+00, 7.863831e-11, 1.765617e-10, 1.238296e-10, 3.125317e-10, 4.413693e+01, 3.530038e-02
3.938000e+08, 6.449261e-02, 9.948495e-01, 4.715972e-02, 1.229792e-02, 2.864638e+00, -4.356183e-01, 1.264574e+00, -1.419161e+00, 7.762394e-11, 1.765650e-10, 1.237917e-10, 3.115317e-10, 4.416058e+01, 3.540066e-02
3.976000e+08, 6.424800e-02, 9.948606e-01, 4.756055e-02, 1.243085e-02, 2.862784e+00, -4.398340e-01, 1.261619e+00, -1.426599e+00, 7.659159e-11, 1.765685e-10, 1.237683e-10, 3.105425e-10, 4.418434e+01, 3.549507e-02
4.014000e+08, 6.400164e-02, 9.948716e-01, 4.795939e-02, 1.256363e-02, 2.860956e+00, -4.440498e-01, 1.258664e+00, -1.434013e+00, 7.554089e-11, 1.765721e-10, 1.237595e-10, 3.095635e-10, 4.420822e+01, 3.558358e-02
4.052000e+08, 6.375352e-02, 9.948826e-01, 4.835621e-02, 1.269625e-02, 2.859152e+00, -4.482656e-01, 1.255709e+00, -1.441405e+00, 7.447143e-11, 1.765759e-10, 1.237649e-10, 3.085946e-10, 4.423223e+01, 3.566616e-02
4.090000e+08, 6.350365e-02, 9.948936e-01, 4.875100e-02, 1.282870e-02, 2.857374e+00, -4.524816e-01, 1.252754e+00, -1.448773e+00, 7.338281e-11, 1.765798e-10, 1.237846e-10, 3.076352e-10, 4.425634e+01, 3.574279e-02
4.128000e+08, 6.325207e-02, 9.949045e-01, 4.914373e-02, 1.296098e-02, 2.855622e+00, -4.566976e-01, 1.249798e+00, -1.456118e+00, 7.227461e-11, 1.765838e-10, 1.238183e-10, 3.066852e-10, 4.428057e+01, 3.581345e-02
4.166000e+08, 6.299876e-02, 9.949154e-01, 4.953438e-02, 1.309308e-02, 2.853896e+00, -4.609138e-01, 1.246842e+00, -1.463440e+00, 7.114641e-11, 1.765880e-10, 1.238658e-10, 3.057441e-10, 4.430491e+01, 3.587811e-02
4.204000e+08, 6.274376e-02, 9.949262e-01, 4.992293e-02, 1.322500e-02, 2.852197e+00, -4.651300e-01, 1.243884e+00, -1.470740e+00, 6.999775e-11, 1.765923e-10, 1.239271e-10, 3.048118e-10, 4.432936e+01, 3.593676e-02
4.242000e+08, 6.248708e-02, 9.949369e-01, 5.030936e-02, 1.335672e-02, 2.850526e+00, -4.693463e-01, 1.240926e+00, -1.478018e+00, 6.882818e-11, 1.765968e-10, 1.240018e-10, 3.038878e-10, 4.435391e+01, 3.598937e-02
4.280000e+08, 6.222872e-02, 9.949476e-01, 5.069365e-02, 1.348824e-02, 2.848883e+00, -4.735628e-01, 1.237965e+00, -1.485274e+00, 6.763722e-11, 1.766013e-10, 1.240899e-10, 3.029721e-10, 4.437857e+01, 3.603592e-02
4.318000e+08, 6.196870e-02, 9.949583e-01, 5.107578e-02, 1.361955e-02, 2.847268e+00, -4.777793e-01, 1.235002e+00, -1.492507e+00, 6.642438e-11, 1.766060e-10, 1.241912e-10, 3.020642e-10, 4.440333e+01, 3.607639e-02
4.356000e+08, 6.170704e-02, 9.949688e-01, 5.145573e-02, 1.375066e-02, 2.845682e+00, -4.819960e-01, 1.232037e+00, -1.499719e+00, 6.518915e-11, 1.766108e-10, 1.243053e-10, 3.011640e-10, 4.442818e+01, 3.611077e-02
4.394000e+08, 6.144375e-02, 9.949793e-01, 5.183349e-02, 1.388155e-02, 2.844126e+00, -4.862128e-01, 1.229069e+00, -1.506910e+00, 6.393102e-11, 1.766156e-10, 1.244322e-10, 3.002712e-10, 4.445313e+01, 3.613902e-02
4.432000e+08, 6.117885e-02, 9.949897e-01, 5.220904e-02, 1.401221e-02, 2.842599e+00, -4.904297e-01, 1.226098e+00, -1.514079e+00, 6.264946e-11, 1.766206e-10, 1.245716e-10, 2.993857e-10, 4.447817e+01, 3.616114e-02
4.470000e+08, 6.091235e-02, 9.950001e-01, 5.258237e-02, 1.414266e-02, 2.841103e+00, -4.946467e-01, 1.223124e+00, -1.521228e+00, 6.134390e-11, 1.766257e-10, 1.247233e-10, 2.985072e-10, 4.450331e+01, 3.617710e-02
4.508000e+08, 6.064426e-02, 9.950103e-01, 5.295345e-02, 1.427286e-02, 2.839639e+00, -4.988638e-01, 1.220146e+00, -1.528355e+00, 6.001377e-11, 1.766309e-10, 1.248871e-10, 2.976356e-10, 4.452853e+01, 3.618689e-02
4.546000e+08, 6.037460e-02, 9.950205e-01, 5.332228e-02, 1.440283e-02, 2.838206e+00, -5.030811e-01, 1.217164e+00, -1.535461e+00, 5.865850e-11, 1.766361e-10, 1.250627e-10, 2.967706e-10, 4.455384e+01, 3.619049e-02
4.584000e+08, 6.010339e-02, 9.950306e-01, 5.368883e-02, 1.453256e-02, 2.836805e+00, -5.072984e-01, 1.214178e+00, -1.542547e+00, 5.727748e-11, 1.766415e-10, 1.252499e-10, 2.959121e-10, 4.457923e+01, 3.618788e-02
4.622000e+08, 5.983064e-02, 9.950406e-01, 5.405311e-02, 1.466205e-02, 2.835438e+00, -5.115160e-01, 1.211188e+00, -1.549612e+00, 5.587008e-11, 1.766469e-10, 1.254484e-10, 2.950598e-10, 4.460471e+01, 3.617904e-02
4.660000e+08, 5.955636e-02, 9.950504e-01, 5.441509e-02, 1.479128e-02, 2.834104e+00, -5.157336e-01, 1.208192e+00, -1.556657e+00, 5.443566e-11, 1.766524e-10, 1.256580e-10, 2.942138e-10, 4.463026e+01, 3.616397e-02
4.698000e+08, 5.928058e-02, 9.950602e-01, 5.477476e-02, 1.492025e-02, 2.832804e+00, -5.199514e-01, 1.205192e+00, -1.563682e+00, 5.297357e-11, 1.766579e-10, 1.258785e-10, 2.933738e-10, 4.465588e+01, 3.614263e-02
4.736000e+08, 5.900331e-02, 9.950699e-01, 5.513211e-02, 1.504896e-02, 2.831539e+00, -5.241693e-01, 1.202187e+00, -1.570686e+00, 5.148313e-11, 1.766635e-10, 1.261095e-10, 2.925396e-10, 4.468158e+01, 3.611502e-02
4.774000e+08, 5.872456e-02, 9.950795e-01, 5.548714e-02, 1.517741e-02, 2.830310e+00, -5.283873e-01, 1.199176e+00, -1.577671e+00, 4.996362e-11, 1.766692e-10, 1.263509e-10, 2.917112e-10, 4.470735e+01, 3.608112e-02
4.812000e+08, 5.844435e-02, 9.950889e-01, 5.583983e-02, 1.530559e-02, 2.829117e+00, -5.326055e-01, 1.196159e+00, -1.584636e+00, 4.841435e-11, 1.766750e-10, 1.266023e-10, 2.908884e-10, 4.473319e+01, 3.604092e-02
4.850000e+08, 5.816270e-02, 9.950982e-01, 5.619017e-02, 1.543350e-02, 2.827961e+00, -5.368238e-01, 1.193136e+00, -1.591581e+00, 4.683455e-11, 1.766808e-10, 1.268635e-10, 2.900711e-10, 4.475910e+01, 3.599441e-02
4.888000e+08, 5.787963e-02, 9.951075e-01, 5.653816e-02, 1.556113e-02, 2.826843e+00, -5.410422e-01, 1.190107e+00, -1.598507e+00, 4.522348e-11, 1.766866e-10, 1.271342e-10, 2.892592e-10, 4.478507e+01, 3.594156e-02
4.926000e+08, 5.759515e-02, 9.951166e-01, 5.688378e-02, 1.568848e-02, 2.825763e+00, -5.452608e-01, 1.187072e+00, -1.605413e+00, 4.358034e-11, 1.766925e-10, 1.274141e-10, 2.884525e-10, 4.481110e+01, 3.588237e-02
4.964000e+08, 5.730928e-02, 9.951255e-01, 5.722703e-02, 1.581554e-02, 2.824723e+00, -5.494796e-01, 1.184029e+00, -1.612300e+00, 4.190432e-11, 1.766984e-10, 1.277030e-10, 2.876510e-10, 4.483718e+01, 3.581682e-02
5.002000e+08, 5.702204e-02, 9.951344e-01, 5.756791e-02, 1.594232e-02, 2.823722e+00, -5.536984e-01, 1.180980e+00, -1.619168e+00, 4.019460e-11, 1.767044e-10, 1.280005e-10, 2.868545e-10, 4.486333e+01, 3.574490e-02
5.040000e+08, 5.673344e-02, 9.951431e-01, 5.790640e-02, 1.606881e-02, 2.822762e+00, -5.579174e-01, 1.177924e+00, -1.626017e+00, 3.845032e-11, 1.767104e-10, 1.283065e-10, 2.860630e-10, 4.488952e+01, 3.566660e-02
5.078000e+08, 5.644352e-02, 9.951516e-01, 5.824251e-02, 1.619501e-02, 2.821844e+00, -5.621366e-01, 1.174861e+00, -1.632848e+00, 3.667059e-11, 1.767165e-10, 1.286205e-10, 2.852764e-10, 4.491577e+01, 3.558190e-02
5.116000e+08, 5.615227e-02, 9.951600e-01, 5.857623e-02, 1.632091e-02, 2.820969e+00, -5.663559e-01, 1.171790e+00, -1.639659e+00, 3.485451e-11, 1.767226e-10, 1.289424e-10, 2.844946e-10, 4.494206e+01, 3.549080e-02
5.154000e+08, 5.585974e-02, 9.951683e-01, 5.890755e-02, 1.644651e-02, 2.820137e+00, -5.705753e-01, 1.168711e+00, -1.646451e+00, 3.300115e-11, 1.767287e-10, 1.292718e-10, 2.837175e-10, 4.496840e+01, 3.539329e-02
5.192000e+08, 5.556592e-02, 9.951765e-01, 5.923648e-02, 1.657180e-02, 2.819349e+00, -5.747949e-01, 1.165625e+00, -1.653225e+00, 3.110954e-11, 1.767348e-10, 1.296085e-10, 2.829450e-10, 4.499478e+01, 3.528934e-02
5.230000e+08, 5.527085e-02, 9.951844e-01, 5.956300e-02, 1.669679e-02, 2.818606e+00, -5.790147e-01, 1.162530e+00, -1.659981e+00, 2.917870e-11, 1.767409e-10, 1.299521e-10, 2.821770e-10, 4.502120e+01, 3.517897e-02
5.268000e+08, 5.497455e-02, 9.951923e-01, 5.988712e-02, 1.682148e-02, 2.817909e+00, -5.832346e-01, 1.159427e+00, -1.666718e+00, 2.720762e-11, 1.767471e-10, 1.303025e-10, 2.814135e-10, 4.504766e+01, 3.506214e-02
5.306000e+08, 5.467703e-02, 9.951999e-01, 6.020884e-02, 1.694585e-02, 2.817260e+00, -5.874546e-01, 1.156316e+00, -1.673437e+00, 2.519524e-11, 1.767533e-10, 1.306592e-10, 2.806544e-10, 4.507415e+01, 3.493886e-02
5.344000e+08, 5.437832e-02, 9.952074e-01, 6.052815e-02, 1.706991e-02, 2.816658e+00, -5.916748e-01, 1.153197e+00, -1.680138e+00, 2.314049e-11, 1.767594e-10, 1.310221e-10, 2.798997e-10, 4.510068e+01, 3.480912e-02
5.382000e+08, 5.407843e-02, 9.952148e-01, 6.084506e-02, 1.719366e-02, 2.816106e+00, -5.958951e-01, 1.150068e+00, -1.686821e+00, 2.104226e-11, 1.767656e-10, 1.313909e-10, 2.791492e-10, 4.512723e+01, 3.467290e-02
5.420000e+08, 5.377740e-02, 9.952220e-01, 6.115956e-02, 1.731709e-02, 2.815603e+00, -6.001156e-01, 1.146931e+00, -1.693486e+00, 1.889942e-11, 1.767718e-10, 1.317652e-10, 2.784029e-10, 4.515381e+01, 3.453021e-02
5.458000e+08, 5.347524e-02, 9.952290e-01, 6.147166e-02, 1.744020e-02, 2.815152e+00, -6.043362e-01, 1.143785e+00, -1.700133e+00, 1.671080e-11, 1.767780e-10, 1.321448e-10, 2.776607e-10, 4.518042e+01, 3.438102e-02
5.496000e+08, 5.317198e-02, 9.952358e-01, 6.178135e-02, 1.756299e-02, 2.814753e+00, -6.085570e-01, 1.140630e+00, -1.706763e+00, 1.447519e-11, 1.767842e-10, 1.325295e-10, 2.769227e-10, 4.520705e+01, 3.422535e-02
